0.06
0.055
0.055
0.06
0.045
0.035
0.01
-0.005
0
0.015
0.01
0
-0.005
-0.015
-0.005
0
0
0.005
-0.005
0
0.005
0
-0.005
-0.02
-0.03
-0.025
-0.02
-0.01
0
-0.005
-0.015
-0.02
-0.025
-0.015
-0.005
0
-0.01
-0.005
0.01
0.03
0.045
0.01
-0.005
-0.005
0
0.02
0.03
0.02
0.005
0.01
0.01
0.03
0.025
0.025
0.02
0.025
0.005
0.025
0.03
0.03
0.035
0.025
0.04
0.06
0.075
0.09
0.11
0.13
0.185
0.275
0.39
0.52
0.645
0.755
0.885
1.025
1.145
1.21
1.225
1.225
1.245
1.28
1.29
1.285
1.245
1.19
1.13
1.06
0.99
0.96
0.97
0.99
1.015
1.055
1.09
1.09
1.055
0.975
0.915
0.87
0.795
0.67
0.47
0.235
0.035
-0.09
-0.145
-0.17
-0.21
-0.245
-0.255
-0.275
-0.3
-0.335
-0.355
-0.37
-0.38
-0.385
-0.39
-0.41
-0.425
-0.44
-0.435
-0.44
-0.45
-0.475
-0.495
-0.515
-0.52
-0.525
-0.52
-0.55
-0.56
-0.585
-0.605
-0.605
-0.62
-0.64
-0.665
-0.69
-0.69
-0.69
-0.69
-0.71
-0.73
-0.745
-0.76
-0.78
-0.78
-0.8
-0.815
-0.84
-0.84
-0.84
-0.855
-0.86
-0.885
-0.895
-0.895
-0.89
-0.895
-0.91
-0.915
-0.93
-0.93
-0.915
-0.93
-0.925
-0.94
-0.955
-0.94
-0.92
-0.92
-0.92
-0.93
-0.91
-0.9
-0.875
-0.87
-0.85
-0.83
-0.795
-0.775
-0.745
-0.715
-0.685
-0.68
-0.68
-0.655
-0.625
-0.595
-0.59
-0.595
-0.59
-0.575
-0.56
-0.54
-0.53
-0.515
-0.49
-0.45
-0.415
-0.38
-0.35
-0.34
-0.34
-0.32
-0.275
-0.245
-0.23
-0.23
-0.22
-0.195
-0.19
-0.17
-0.16
-0.15
-0.145
-0.13
-0.105
-0.09
-0.085
-0.08
-0.095
-0.09
-0.075
-0.055
-0.05
-0.05
-0.06
-0.065
-0.045
-0.04
-0.03
-0.05
-0.055
-0.045
-0.03
-0.02
-0.025
-0.02
-0.025
-0.005
-0.005
0.01
0.015
0
0
0.01
0.02
0.03
0.025
0.01
0
0
0.03
0.035
0.02
0.005
0.025
0.01
0.025
0.04
0.035
0.02
0.02
0.045
0.055
0.065
0.065
0.045
0.03
0.035
0.04
0.065
0.05
0.035
0.04
0.05
0.06
0.065
0.06
0.055
0.045
0.045
0.06
0.075
0.06
0.06
0.06
0.08
0.07
0.075
0.08
0.07
0.04
0.045
0.06
0.07
0.07
0.065
0.055
0.055
0.07
0.075
0.07
0.065
0.06
0.065
0.075
0.08
0.075
0.07
0.06
0.06
0.06
0.075
0.075
0.06
0.06
0.07
0.065
0.075
0.07
0.065
0.065
0.09
0.1
0.095
0.08
0.07
0.045
0.07
0.085
0.085
0.08
0.065
0.055
0.055
0.07
0.075
0.075
0.075
0.055
0.065
0.08
0.08
0.085
0.09
0.085
0.085
0.105
0.1
0.085
0.085
0.09
0.09
0.095
0.09
0.09
0.085
0.08
0.09
0.105
0.105
0.095
0.09
0.08
0.09
0.09
0.105
0.105
0.095
0.085
0.085
0.09
0.1
0.105
0.08
0.075
0.085
0.095
0.09
0.085
0.085
0.075
0.08
0.09
0.105
0.105
0.105
0.095
0.1
0.11
0.115
0.115
0.095
0.085
0.09
0.1
0.11
0.09
0.09
0.095
0.095
0.115
0.1
0.11
0.09
0.095
0.1
0.135
0.14
0.125
0.09
0.075
0.085
0.1
0.1
0.1
0.09
0.085
0.075
0.1
0.095
0.1
0.09
0.095
0.105
0.125
0.13
0.135
0.14
0.15
0.16
0.145
0.115
0.1
0.08
0.095
0.105
0.115
0.12
0.135
0.115
0.105
0.105
0.12
0.13
0.125
0.12
0.115
0.14
0.155
0.145
0.15
0.14
0.145
0.145
0.165
0.155
0.155
0.14
0.15
0.165
0.18
0.175
0.15
0.125
0.12
0.125
0.15
0.145
0.145
0.125
0.105
0.095
0.09
0.11
0.1
0.09
0.085
0.095
0.105
0.11
0.105
0.095
0.09
0.1
0.105
0.11
0.09
0.085
0.075
0.08
0.09
0.095
0.095
0.095
0.08
0.09
0.095
0.09
0.115
0.115
0.1
0.075
0.09
0.115
0.12
0.095
0.1
0.105
0.095
0.06
0.015
0.005
0.025
0.05
0.05
0.055
0.045
0.045
0.045
0.055
0.07
0.075
0.07
0.06
0.055
0.065
0.08
0.065
0.075
0.07
0.045
0.05
0.045
0.04
0.04
0.03
0.035
0.045
0.06
0.06
0.075
0.05
0.045
0.055
0.075
0.07
0.06
0.06
0.065
0.095
0.115
0.11
0.09
0.075
0.1
0.11
0.085
0.085
0.095
0.12
0.14
0.145
0.205
0.21
0.2
0.14
0.075
0.015
-0.015
-0.005
0.03
0.05
0.04
0.045
0.05
0.07
0.085
0.09
0.06
0.05
0.03
0
0.03
0.005
0.01
0.005
0.005
-0.01
-0.005
-0.005
-0.015
0
0.01
0.015
0.015
-0.005
-0.015
-0.005
0.005
0.015
0.005
0
0.015
0.02
0.04
0.03
0.02
0.04
0.11
0.135
0.07
-0.03
-0.105
-0.125
-0.1
-0.065
-0.025
-0.015
-0.02
-0.035
-0.03
-0.03
-0.065
-0.12
-0.19
-0.275
-0.385
-0.51
-0.67
-0.91
-1.165
-1.375
-1.425
-1.41
-1.35
-1.295
-1.27
-1.24
-1.2
-1.145
-1.085
-1.055
-1.03
-1.02
-0.995
-0.93
-0.865
-0.805
-0.755
-0.73
-0.67
-0.575
-0.47
-0.395
-0.305
-0.235
-0.155
-0.06
0
0.03
0.06
0.105
0.16
0.2
0.24
0.275
0.285
0.255
0.235
0.24
0.275
0.27
0.285
0.27
0.275
0.3
0.32
0.36
0.42
0.435
0.375
0.3
0.305
0.365
0.37
0.29
0.245
0.28
0.31
0.35
0.405
0.455
0.46
0.355
0.24
0.275
0.375
0.415
0.37
0.32
0.3
0.325
0.375
0.39
0.365
0.315
0.305
0.335
0.37
0.36
0.32
0.295
0.3
0.325
0.33
0.345
0.325
0.35
0.355
0.375
0.37
0.36
0.365
0.39
0.405
0.41
0.38
0.35
0.33
0.345
0.375
0.345
0.32
0.295
0.28
0.255
0.265
0.27
0.275
0.27
0.265
0.275
0.28
0.29
0.285
0.265
0.24
0.205
0.19
0.185
0.19
0.19
0.18
0.19
0.185
0.205
0.2
0.155
0.085
0.055
0.09
0.115
0.13
0.145
0.16
0.165
0.13
0.105
0.105
0.06
0.02
0.005
0.025
0.03
0.02
0.03
0.05
0.105
0.145
0.155
0.115
0.08
0.03
0.02
0.03
0.04
0.04
0.035
0.055
0.07
0.08
0.105
0.11
0.13
0.15
0.155
0.13
0.1
0.115
0.12
0.135
0.155
0.16
0.175
0.18
0.18
0.18
0.18
0.185
0.205
0.215
0.22
0.205
0.195
0.19
0.195
0.2
0.2
0.195
0.205
0.21
0.22
0.22
0.225
0.21
0.22
0.225
0.215
0.215
0.21
0.21
0.22
0.22
0.215
0.22
0.245
0.23
0.25
0.295
0.37
0.385
0.28
0.15
0.155
0.22
0.27
0.255
0.245
0.23
0.245
0.26
0.26
0.265
0.25
0.255
0.275
0.275
0.27
0.27
0.25
0.255
0.265
0.28
0.285
0.28
0.27
0.265
0.265
0.27
0.275
0.265
0.26
0.245
0.255
0.265
0.28
0.28
0.275
0.27
0.27
0.285
0.3
0.31
0.305
0.315
0.32
0.295
0.285
0.3
0.305
0.29
0.27
0.295
0.29
0.295
0.285
0.28
0.28
0.305
0.295
0.305
0.275
0.265
0.265
0.28
0.295
0.295
0.28
0.275
0.29
0.29
0.3
0.29
0.29
0.275
0.275
0.275
0.3
0.3
0.28
0.275
0.295
0.32
0.34
0.325
0.33
0.35
0.36
0.35
0.36
0.365
0.355
0.325
0.31
0.315
0.315
0.31
0.3
0.275
0.28
0.28
0.305
0.295
0.295
0.25
0.265
0.275
0.275
0.275
0.245
0.23
0.225
0.225
0.22
0.215
0.2
0.2
0.21
0.215
0.21
0.22
0.23
0.235
0.215
0.2
0.19
0.185
0.185
0.185
0.185
0.195
0.195
0.185
0.18
0.15
0.105
0.13
0.14
0.13
0.12
0.12
0.115
0.115
0.115
0.115
0.115
0.115
0.105
0.07
0.01
-0.105
-0.24
-0.37
-0.52
-0.715
-0.995
-1.26
-1.455
-1.51
-1.475
-1.405
-1.365
-1.325
-1.28
-1.26
-1.22
-1.205
-1.16
-1.135
-1.085
-1.055
-0.995
-0.925
-0.87
-0.82
-0.765
-0.7
-0.61
-0.51
-0.415
-0.335
-0.265
-0.195
-0.12
-0.04
0.01
0.05
0.07
0.1
0.11
0.14
0.16
0.17
0.165
0.15
0.145
0.16
0.175
0.165
0.15
0.135
0.14
0.15
0.145
0.11
0.1
0.095
0.11
0.115
0.12
0.11
0.08
0.07
0.085
0.105
0.11
0.105
0.11
0.1
0.115
0.115
0.12
0.135
0.115
0.12
0.125
0.135
0.145
0.145
0.12
0.09
0.1
0.13
0.135
0.115
0.08
0.075
0.1
0.105
0.11
0.115
0.105
0.11
0.12
0.115
0.105
0.11
0.095
0.09
0.1
0.12
0.11
0.075
0.075
0.05
0.065
0.065
0.075
0.07
0.07
0.05
0.045
0.04
0.045
0.04
0.025
0.01
0.005
0
-0.005
-0.01
-0.025
-0.05
-0.05
-0.05
-0.06
-0.065
-0.09
-0.09
-0.1
-0.09
-0.09
-0.1
-0.13
-0.14
-0.125
-0.11
-0.11
-0.12
-0.135
-0.15
-0.15
-0.125
-0.13
-0.11
-0.115
-0.14
-0.135
-0.125
-0.12
-0.11
-0.11
-0.13
-0.115
-0.095
-0.09
-0.085
-0.095
-0.09
-0.08
-0.07
-0.055
-0.04
-0.045
-0.055
-0.035
-0.03
-0.02
-0.015
-0.01
-0.015
-0.01
0.005
0.02
0.04
0.03
0.035
0.045
0.05
0.055
0.06
0.07
0.07
0.075
0.085
0.075
0.075
0.095
0.08
0.095
0.105
0.115
0.115
0.12
0.11
0.125
0.13
0.14
0.135
0.135
0.1
0.115
0.1
0.115
0.12
0.12
0.105
0.12
0.13
0.135
0.115
0.12
0.115
0.125
0.125
0.115
0.12
0.115
0.115
0.12
0.12
0.115
0.115
0.115
0.11
0.12
0.135
0.125
0.11
0.105
0.105
0.11
0.13
0.14
0.135
0.13
0.115
0.11
0.12
0.13
0.135
0.115
0.115
0.105
0.115
0.125
0.14
0.125
0.135
0.14
0.14
0.14
0.135
0.14
0.125
0.15
0.135
0.13
0.12
0.12
0.105
0.125
0.14
0.145
0.145
0.13
0.135
0.14
0.155
0.165
0.175
0.17
0.16
0.185
0.19
0.195
0.21
0.2
0.225
0.25
0.255
0.26
0.255
0.26
0.27
0.3
0.32
0.335
0.345
0.345
0.355
0.37
0.39
0.41
0.395
0.375
0.355
0.355
0.355
0.345
0.335
0.315
0.31
0.335
0.35
0.365
0.34
0.32
0.305
0.32
0.335
0.345
0.325
0.32
0.285
0.29
0.275
0.25
0.265
0.25
0.275
0.28
0.295
0.305
0.305
0.285
0.275
0.285
0.3
0.29
0.29
0.285
0.28
0.285
0.31
0.3
0.29
0.275
0.275
0.29
0.285
0.285
0.28
0.275
0.27
0.29
0.295
0.305
0.295
0.275
0.29
0.305
0.28
0.225
0.16
0.075
-0.035
-0.15
-0.29
-0.49
-0.78
-1.075
-1.24
-1.26
-1.245
-1.23
-1.2
-1.165
-1.115
-1.045
-1
-0.97
-0.945
-0.92
-0.87
-0.835
-0.775
-0.74
-0.68
-0.64
-0.58
-0.485
-0.39
-0.31
-0.2
-0.13
-0.05
0.03
0.11
0.18
0.23
0.27
0.3
0.35
0.395
0.41
0.4
0.4
0.4
0.415
0.44
0.45
0.455
0.45
0.455
0.475
0.48
0.48
0.465
0.46
0.46
0.47
0.465
0.455
0.455
0.45
0.45
0.455
0.465
0.48
0.475
0.45
0.46
0.47
0.48
0.5
0.49
0.485
0.485
0.49
0.495
0.495
0.475
0.465
0.46
0.455
0.47
0.455
0.45
0.445
0.45
0.465
0.46
0.455
0.465
0.455
0.455
0.46
0.47
0.465
0.455
0.44
0.43
0.45
0.46
0.455
0.44
0.41
0.395
0.41
0.415
0.405
0.39
0.385
0.375
0.385
0.385
0.37
0.375
0.355
0.335
0.34
0.335
0.325
0.305
0.29
0.27
0.255
0.265
0.255
0.245
0.235
0.22
0.205
0.205
0.205
0.2
0.19
0.175
0.185
0.195
0.195
0.19
0.185
0.15
0.145
0.175
0.175
0.18
0.175
0.165
0.175
0.175
0.175
0.175
0.18
0.195
0.21
0.215
0.22
0.225
0.215
0.205
0.235
0.24
0.25
0.25
0.24
0.235
0.24
0.285
0.3
0.3
0.31
0.31
0.33
0.34
0.34
0.35
0.34
0.335
0.345
0.365
0.375
0.375
0.365
0.365
0.375
0.38
0.38
0.39
0.38
0.37
0.385
0.4
0.405
0.395
0.385
0.38
0.385
0.4
0.41
0.395
0.39
0.395
0.39
0.405
0.4
0.4
0.4
0.385
0.415
0.43
0.425
0.405
0.38
0.37
0.385
0.385
0.38
0.38
0.37
0.36
0.37
0.37
0.38
0.385
0.365
0.365
0.37
0.39
0.385
0.38
0.375
0.355
0.37
0.37
0.37
0.37
0.35
0.355
0.36
0.35
0.345
0.345
0.345
0.345
0.345
0.365
0.36
0.355
0.355
0.335
0.335
0.35
0.35
0.34
0.345
0.335
0.35
0.345
0.355
0.34
0.335
0.335
0.335
0.345
0.35
0.335
0.33
0.32
0.325
0.35
0.36
0.37
0.37
0.36
0.37
0.38
0.395
0.39
0.4
0.4
0.395
0.375
0.36
0.35
0.345
0.335
0.33
0.325
0.325
0.33
0.33
0.31
0.325
0.325
0.32
0.305
0.29
0.275
0.29
0.28
0.265
0.265
0.26
0.25
0.26
0.265
0.25
0.245
0.225
0.205
0.205
0.22
0.22
0.21
0.195
0.195
0.2
0.22
0.22
0.205
0.185
0.185
0.19
0.21
0.19
0.19
0.175
0.16
0.16
0.17
0.175
0.175
0.18
0.17
0.18
0.175
0.12
0.025
-0.095
-0.215
-0.355
-0.55
-0.825
-1.15
-1.415
-1.54
-1.5
-1.41
-1.355
-1.34
-1.29
-1.24
-1.18
-1.145
-1.12
-1.09
-1.045
-1.01
-0.945
-0.865
-0.83
-0.765
-0.72
-0.645
-0.53
-0.415
-0.325
-0.245
-0.18
-0.085
-0.005
0.08
0.15
0.2
0.25
0.275
0.32
0.36
0.38
0.395
0.39
0.385
0.41
0.43
0.435
0.435
0.44
0.44
0.455
0.46
0.445
0.46
0.455
0.455
0.465
0.475
0.485
0.485
0.47
0.475
0.485
0.495
0.495
0.495
0.48
0.475
0.48
0.49
0.495
0.48
0.48
0.48
0.48
0.485
0.5
0.5
0.495
0.48
0.485
0.52
0.515
0.51
0.505
0.495
0.48
0.495
0.5
0.49
0.485
0.485
0.5
0.515
0.52
0.52
0.49
0.495
0.5
0.515
0.52
0.51
0.485
0.46
0.46
0.47
0.465
0.445
0.44
0.435
0.425
0.42
0.42
0.41
0.395
0.39
0.39
0.39
0.38
0.36
0.345
0.32
0.32
0.31
0.295
0.285
0.255
0.255
0.255
0.255
0.26
0.25
0.24
0.235
0.24
0.265
0.25
0.25
0.235
0.225
0.24
0.235
0.235
0.24
0.21
0.205
0.22
0.24
0.245
0.235
0.22
0.225
0.23
0.245
0.25
0.26
0.24
0.235
0.23
0.245
0.265
0.24
0.225
0.23
0.255
0.28
0.29
0.28
0.26
0.255
0.27
0.28
0.295
0.28
0.27
0.26
0.285
0.28
0.275
0.275
0.255
0.245
0.235
0.25
0.265
0.26
0.245
0.235
0.245
0.25
0.255
0.255
0.23
0.23
0.225
0.24
0.23
0.22
0.22
0.205
0.21
0.205
0.215
0.205
0.19
0.18
0.19
0.2
0.215
0.205
0.195
0.175
0.19
0.205
0.195
0.185
0.165
0.155
0.175
0.195
0.185
0.185
0.17
0.165
0.175
0.18
0.175
0.185
0.19
0.17
0.175
0.18
0.19
0.185
0.165
0.165
0.175
0.18
0.175
0.185
0.17
0.165
0.16
0.18
0.17
0.195
0.165
0.165
0.165
0.175
0.18
0.165
0.15
0.145
0.145
0.16
0.155
0.16
0.15
0.13
0.145
0.15
0.155
0.155
0.15
0.155
0.14
0.155
0.15
0.15
0.13
0.14
0.15
0.17
0.17
0.15
0.15
0.165
0.18
0.205
0.22
0.225
0.21
0.225
0.225
0.25
0.255
0.235
0.21
0.19
0.185
0.185
0.19
0.165
0.155
0.175
0.165
0.17
0.17
0.18
0.155
0.145
0.145
0.15
0.14
0.135
0.12
0.105
0.12
0.12
0.11
0.1
0.095
0.095
0.09
0.11
0.1
0.085
0.085
0.08
0.095
0.1
0.115
0.105
0.095
0.085
0.085
0.085
0.085
0.08
0.075
0.08
0.08
0.085
0.09
0.09
0.075
0.08
0.065
0.09
0.085
0.1
0.095
0.07
0.05
0.01
-0.085
-0.19
-0.32
-0.465
-0.65
-0.925
-1.21
-1.4
-1.465
-1.435
-1.375
-1.31
-1.29
-1.23
-1.19
-1.165
-1.13
-1.08
-1.055
-1.025
-0.995
-0.94
-0.87
-0.815
-0.78
-0.72
-0.64
-0.545
-0.415
-0.33
-0.24
-0.18
-0.105
-0.045
0.04
0.09
0.15
0.195
0.23
0.24
0.26
0.29
0.295
0.3
0.3
0.305
0.305
0.325
0.335
0.35
0.34
0.34
0.36
0.37
0.37
0.37
0.37
0.365
0.375
0.385
0.395
0.39
0.38
0.375
0.38
0.395
0.415
0.415
0.39
0.385
0.385
0.4
0.4
0.4
0.415
0.415
0.42
0.425
0.42
0.42
0.41
0.4
0.41
0.43
0.425
0.42
0.405
0.4
0.42
0.425
0.41
0.41
0.385
0.395
0.405
0.41
0.4
0.38
0.38
0.37
0.365
0.355
0.35
0.34
0.345
0.325
0.33
0.325
0.31
0.3
0.28
0.27
0.26
0.255
0.25
0.245
0.23
0.21
0.21
0.21
0.2
0.18
0.155
0.145
0.13
0.14
0.12
0.11
0.1
0.08
0.075
0.085
0.07
0.075
0.055
0.06
0.065
0.075
0.055
0.03
0.02
0.025
0.03
0.035
0.035
0.045
0.025
0.025
0.035
0.045
0.035
0.035
0.03
0.035
0.065
0.075
0.085
0.07
0.065
0.055
0.055
0.075
0.07
0.08
0.06
0.06
0.075
0.08
0.09
0.085
0.07
0.07
0.085
0.105
0.095
0.095
0.1
0.105
0.11
0.115
0.11
0.12
0.115
0.11
0.115
0.13
0.135
0.12
0.12
0.105
0.105
0.12
0.125
0.12
0.11
0.125
0.13
0.145
0.145
0.14
0.12
0.11
0.115
0.125
0.13
0.11
0.11
0.105
0.11
0.115
0.115
0.115
0.105
0.095
0.115
0.115
0.12
0.11
0.1
0.095
0.1
0.11
0.125
0.115
0.1
0.095
0.1
0.11
0.1
0.105
0.105
0.1
0.09
0.115
0.095
0.095
0.075
0.08
0.085
0.105
0.115
0.12
0.105
0.085
0.08
0.1
0.095
0.09
0.085
0.07
0.08
0.09
0.105
0.085
0.085
0.09
0.1
0.13
0.135
0.125
0.1
0.09
0.09
0.095
0.1
0.1
0.085
0.095
0.13
0.125
0.11
0.095
0.065
0.065
0.09
0.09
0.095
0.08
0.075
0.08
0.1
0.105
0.1
0.095
0.095
0.09
0.085
0.085
0.09
0.085
0.085
0.095
0.095
0.11
0.1
0.1
0.095
0.075
0.1
0.11
0.12
0.14
0.135
0.14
0.165
0.18
0.19
0.19
0.185
0.185
0.205
0.205
0.2
0.175
0.17
0.145
0.15
0.15
0.145
0.13
0.13
0.13
0.15
0.165
0.17
0.155
0.135
0.125
0.12
0.135
0.125
0.13
0.105
0.1
0.1
0.1
0.095
0.09
0.075
0.085
0.095
0.11
0.11
0.1
0.1
0.095
0.095
0.1
0.09
0.09
0.09
0.09
0.1
0.095
0.09
0.115
0.095
0.1
0.095
0.105
0.11
0.08
0.08
0.085
0.095
0.11
0.105
0.09
0.09
0.095
0.085
0.105
0.1
0.11
0.12
0.105
0.06
-0.005
-0.105
-0.225
-0.345
-0.49
-0.665
-0.87
-1.15
-1.37
-1.495
-1.47
-1.395
-1.345
-1.3
-1.24
-1.2
-1.17
-1.145
-1.13
-1.09
-1.055
-1.025
-0.99
-0.93
-0.88
-0.84
-0.79
-0.76
-0.69
-0.585
-0.48
-0.39
-0.325
-0.265
-0.185
-0.105
-0.03
0.025
0.075
0.13
0.175
0.24
0.295
0.315
0.325
0.32
0.34
0.36
0.365
0.375
0.36
0.375
0.385
0.405
0.435
0.44
0.445
0.435
0.42
0.415
0.43
0.425
0.425
0.41
0.41
0.415
0.43
0.415
0.39
0.36
0.355
0.365
0.38
0.38
0.375
0.37
0.355
0.36
0.375
0.375
0.37
0.365
0.37
0.37
0.38
0.375
0.37
0.365
0.365
0.375
0.395
0.39
0.385
0.37
0.365
0.365
0.37
0.365
0.37
0.355
0.345
0.365
0.365
0.365
0.345
0.33
0.315
0.335
0.335
0.32
0.34
0.315
0.31
0.31
0.32
0.31
0.3
0.27
0.255
0.27
0.26
0.25
0.23
0.225
0.215
0.215
0.19
0.175
0.165
0.15
0.145
0.145
0.155
0.135
0.13
0.095
0.105
0.1
0.105
0.105
0.105
0.095
0.09
0.1
0.105
0.1
0.115
0.105
0.1
0.105
0.125
0.13
0.145
0.155
0.15
0.14
0.15
0.145
0.155
0.15
0.165
0.195
0.21
0.22
0.22
0.215
0.22
0.245
0.25
0.25
0.25
0.25
0.265
0.29
0.285
0.29
0.295
0.28
0.265
0.26
0.26
0.27
0.275
0.275
0.265
0.28
0.29
0.3
0.29
0.295
0.29
0.305
0.3
0.3
0.305
0.305
0.285
0.295
0.3
0.295
0.29
0.275
0.27
0.295
0.31
0.305
0.29
0.27
0.265
0.285
0.285
0.28
0.285
0.27
0.26
0.27
0.275
0.28
0.275
0.25
0.26
0.265
0.27
0.26
0.255
0.255
0.26
0.255
0.275
0.28
0.275
0.26
0.25
0.265
0.27
0.27
0.26
0.24
0.235
0.255
0.26
0.25
0.255
0.245
0.235
0.245
0.26
0.26
0.25
0.24
0.24
0.25
0.26
0.26
0.26
0.26
0.26
0.265
0.27
0.275
0.255
0.245
0.25
0.255
0.275
0.265
0.265
0.255
0.245
0.265
0.28
0.28
0.265
0.255
0.275
0.275
0.28
0.275
0.28
0.275
0.27
0.27
0.265
0.275
0.27
0.285
0.265
0.275
0.285
0.29
0.29
0.285
0.29
0.305
0.31
0.3
0.305
0.305
0.29
0.29
0.31
0.305
0.285
0.275
0.28
0.29
0.31
0.3
0.305
0.29
0.285
0.305
0.31
0.31
0.31
0.295
0.29
0.295
0.31
0.315
0.295
0.29
0.27
0.29
0.295
0.295
0.3
0.28
0.285
0.28
0.295
0.295
0.285
0.285
0.285
0.31
0.31
0.3
0.305
0.3
0.305
0.325
0.325
0.33
0.345
0.335
0.35
0.37
0.37
0.385
0.385
0.38
0.375
0.36
0.36
0.355
0.345
0.325
0.31
0.325
0.32
0.345
0.335
0.315
0.32
0.32
0.31
0.31
0.29
0.29
0.28
0.275
0.285
0.265
0.26
0.255
0.25
0.26
0.275
0.265
0.26
0.245
0.26
0.26
0.26
0.265
0.26
0.25
0.24
0.245
0.255
0.255
0.245
0.235
0.245
0.25
0.265
0.26
0.255
0.25
0.255
0.25
0.25
0.245
0.24
0.235
0.235
0.25
0.255
0.24
0.185
0.085
-0.01
-0.105
-0.235
-0.445
-0.715
-0.99
-1.175
-1.225
-1.2
-1.15
-1.115
-1.09
-1.025
-0.96
-0.915
-0.895
-0.86
-0.82
-0.785
-0.725
-0.67
-0.61
-0.56
-0.51
-0.425
-0.305
-0.21
-0.14
-0.07
0.01
0.085
0.14
0.23
0.28
0.34
0.38
0.415
0.445
0.465
0.48
0.48
0.475
0.495
0.515
0.525
0.535
0.53
0.535
0.53
0.545
0.555
0.555
0.555
0.54
0.545
0.555
0.565
0.565
0.555
0.56
0.57
0.585
0.59
0.585
0.58
0.575
0.58
0.595
0.605
0.595
0.585
0.575
0.565
0.595
0.595
0.61
0.61
0.59
0.585
0.6
0.605
0.605
0.62
0.605
0.595
0.615
0.615
0.605
0.605
0.6
0.59
0.595
0.61
0.6
0.59
0.575
0.565
0.58
0.58
0.58
0.565
0.555
0.545
0.565
0.565
0.555
0.54
0.515
0.515
0.52
0.53
0.525
0.51
0.47
0.465
0.46
0.47
0.455
0.45
0.425
0.41
0.415
0.415
0.4
0.38
0.37
0.355
0.365
0.36
0.34
0.32
0.31
0.305
0.3
0.305
0.295
0.29
0.275
0.285
0.28
0.29
0.3
0.275
0.275
0.26
0.275
0.29
0.28
0.275
0.26
0.255
0.265
0.28
0.275
0.285
0.265
0.27
0.26
0.265
0.255
0.26
0.255
0.255
0.26
0.28
0.28
0.28
0.26
0.265
0.28
0.29
0.285
0.28
0.27
0.27
0.275
0.29
0.295
0.285
0.275
0.285
0.29
0.295
0.305
0.305
0.285
0.28
0.305
0.315
0.315
0.305
0.3
0.285
0.28
0.29
0.285
0.28
0.275
0.265
0.285
0.28
0.285
0.28
0.27
0.255
0.26
0.28
0.265
0.275
0.25
0.245
0.255
0.255
0.275
0.26
0.25
0.24
0.25
0.265
0.255
0.26
0.255
0.26
0.255
0.26
0.25
0.24
0.235
0.235
0.25
0.245
0.245
0.245
0.23
0.225
0.24
0.245
0.25
0.245
0.235
0.225
0.235
0.23
0.24
0.235
0.23
0.22
0.225
0.225
0.22
0.195
0.2
0.195
0.205
0.215
0.215
0.21
0.185
0.175
0.195
0.195
0.19
0.19
0.175
0.19
0.195
0.2
0.185
0.185
0.175
0.17
0.175
0.195
0.18
0.165
0.155
0.14
0.15
0.18
0.175
0.17
0.155
0.16
0.165
0.17
0.155
0.16
0.155
0.155
0.155
0.155
0.15
0.155
0.155
0.15
0.16
0.175
0.175
0.175
0.16
0.155
0.165
0.175
0.17
0.17
0.17
0.165
0.155
0.17
0.17
0.155
0.16
0.165
0.155
0.18
0.17
0.16
0.165
0.165
0.175
0.185
0.18
0.185
0.17
0.175
0.175
0.185
0.18
0.175
0.175
0.175
0.18
0.195
0.19
0.185
0.17
0.19
0.2
0.205
0.19
0.18
0.175
0.17
0.2
0.2
0.195
0.2
0.19
0.165
0.185
0.195
0.2
0.2
0.185
0.19
0.2
0.2
0.22
0.23
0.23
0.235
0.26
0.275
0.29
0.29
0.29
0.28
0.285
0.28
0.25
0.245
0.235
0.235
0.235
0.22
0.225
0.23
0.23
0.235
0.235
0.245
0.235
0.235
0.225
0.215
0.22
0.215
0.2
0.185
0.16
0.16
0.18
0.19
0.185
0.18
0.165
0.165
0.18
0.18
0.175
0.165
0.165
0.155
0.17
0.19
0.175
0.17
0.165
0.155
0.16
0.18
0.16
0.16
0.16
0.155
0.17
0.175
0.17
0.165
0.17
0.16
0.17
0.17
0.175
0.17
0.155
0.1
0.02
-0.055
-0.165
-0.31
-0.47
-0.705
-0.975
-1.215
-1.36
-1.385
-1.345
-1.295
-1.245
-1.185
-1.145
-1.1
-1.08
-1.055
-1.03
-0.98
-0.935
-0.9
-0.865
-0.795
-0.735
-0.66
-0.635
-0.56
-0.475
-0.37
-0.275
-0.19
-0.105
-0.03
0.045
0.11
0.18
0.25
0.295
0.35
0.385
0.405
0.425
0.435
0.435
0.455
0.45
0.47
0.48
0.505
0.495
0.505
0.51
0.51
0.525
0.54
0.545
0.54
0.535
0.53
0.55
0.57
0.56
0.555
0.545
0.555
0.56
0.56
0.57
0.565
0.555
0.555
0.565
0.575
0.57
0.59
0.565
0.57
0.585
0.59
0.6
0.595
0.59
0.585
0.585
0.595
0.595
0.595
0.59
0.585
0.6
0.62
0.61
0.605
0.58
0.57
0.58
0.6
0.585
0.58
0.565
0.56
0.57
0.58
0.56
0.545
0.545
0.54
0.54
0.555
0.54
0.52
0.52
0.51
0.5
0.51
0.5
0.485
0.48
0.455
0.45
0.445
0.425
0.41
0.38
0.355
0.36
0.365
0.35
0.33
0.32
0.315
0.32
0.32
0.31
0.305
0.285
0.28
0.29
0.29
0.29
0.285
0.275
0.275
0.285
0.29
0.29
0.29
0.285
0.295
0.3
0.29
0.295
0.28
0.285
0.275
0.285
0.3
0.3
0.29
0.28
0.285
0.3
0.31
0.305
0.305
0.295
0.305
0.32
0.34
0.315
0.325
0.31
0.31
0.32
0.335
0.34
0.325
0.32
0.305
0.33
0.33
0.335
0.34
0.32
0.315
0.335
0.34
0.345
0.325
0.32
0.33
0.325
0.335
0.34
0.305
0.295
0.3
0.31
0.325
0.32
0.325
0.295
0.3
0.31
0.31
0.32
0.32
0.305
0.305
0.315
0.32
0.31
0.295
0.28
0.28
0.29
0.295
0.29
0.285
0.275
0.265
0.275
0.295
0.285
0.285
0.275
0.275
0.28
0.305
0.29
0.27
0.275
0.25
0.255
0.265
0.27
0.26
0.245
0.265
0.255
0.28
0.28
0.265
0.26
0.26
0.27
0.27
0.265
0.27
0.25
0.25
0.255
0.265
0.26
0.255
0.245
0.255
0.25
0.27
0.255
0.25
0.235
0.245
0.25
0.265
0.275
0.26
0.23
0.23
0.255
0.265
0.265
0.255
0.24
0.235
0.245
0.255
0.25
0.245
0.23
0.23
0.24
0.26
0.245
0.24
0.225
0.22
0.23
0.245
0.255
0.245
0.235
0.22
0.22
0.225
0.22
0.215
0.215
0.21
0.215
0.22
0.21
0.205
0.21
0.21
0.21
0.22
0.225
0.215
0.205
0.215
0.21
0.225
0.22
0.21
0.195
0.195
0.19
0.205
0.215
0.205
0.205
0.21
0.215
0.22
0.22
0.23
0.24
0.24
0.26
0.28
0.285
0.28
0.26
0.285
0.29
0.305
0.29
0.275
0.255
0.245
0.255
0.255
0.235
0.235
0.225
0.23
0.245
0.245
0.24
0.23
